# Te [eV]  Lz [Wm^3]
1.0000e+02 2.9916e-37
1.0000e+03 2.9916e-35
1.0481e+03 4.9965e-35
1.0985e+03 8.2018e-35
1.1514e+03 1.3307e-34
1.2068e+03 2.1274e-34
1.2649e+03 3.3255e-34
1.3257e+03 5.0721e-34
1.3895e+03 7.5345e-34
1.4563e+03 1.1035e-33
1.5264e+03 1.5804e-33
1.5999e+03 2.2225e-33
1.6768e+03 3.0575e-33
1.7575e+03 4.1296e-33
1.8421e+03 5.4417e-33
1.9307e+03 7.0310e-33
2.0236e+03 8.8832e-33
2.1210e+03 1.0974e-32
2.2230e+03 1.3211e-32
2.3300e+03 1.5467e-32
2.4421e+03 1.7528e-32
2.5595e+03 1.9390e-32
2.6827e+03 2.0746e-32
2.8118e+03 2.2203e-32
2.9471e+03 2.3641e-32
3.0888e+03 2.5306e-32
3.2375e+03 2.7217e-32
3.3932e+03 2.9152e-32
3.5565e+03 3.1005e-32
3.7276e+03 3.2718e-32
3.9069e+03 3.4429e-32
4.0949e+03 3.6019e-32
4.2919e+03 3.7604e-32
4.4984e+03 3.9080e-32
4.7149e+03 4.0354e-32
4.9417e+03 4.1429e-32
5.1795e+03 4.2353e-32
5.4287e+03 4.3177e-32
5.6899e+03 4.3856e-32
5.9636e+03 4.4348e-32
6.2506e+03 4.4723e-32
6.5513e+03 4.4877e-32
6.8665e+03 4.4799e-32
7.1969e+03 4.4469e-32
7.5431e+03 4.4085e-32
7.9060e+03 4.3460e-32
8.2864e+03 4.2841e-32
8.6851e+03 4.2128e-32
9.1030e+03 4.1526e-32
9.5410e+03 4.0820e-32
1.0000e+04 4.0200e-32
